         T[MeV]        p/pi_zw        p/pi_BW       p/pi_eBW
      20.000000   1.279439E-16   1.279580E-16   1.279453E-16
      21.000000   8.484948E-16   8.486331E-16   8.485097E-16
      22.000000   4.733919E-15   4.735022E-15   4.734041E-15
      23.000000   2.272618E-14   2.273353E-14   2.272702E-14
      24.000000   9.565910E-14   9.570099E-14   9.566394E-14
      25.000000   3.586537E-13   3.588613E-13   3.586778E-13
      26.000000   1.213876E-12   1.214785E-12   1.213980E-12
      27.000000   3.751151E-12   3.754720E-12   3.751555E-12
      28.000000   1.068766E-11   1.070036E-11   1.068906E-11
      29.000000   2.831265E-11   2.835401E-11   2.831703E-11
      30.000000   7.024645E-11   7.037090E-11   7.025894E-11
      31.000000   1.642752E-10   1.646236E-10   1.643079E-10
      32.000000   3.641139E-10   3.650275E-10   3.641923E-10
      33.000000   7.686731E-10   7.709305E-10   7.688465E-10
      34.000000   1.552236E-09   1.557519E-09   1.552588E-09
      35.000000   3.009849E-09   3.021611E-09   3.010501E-09
      36.000000   5.623124E-09   5.648141E-09   5.624198E-09
      37.000000   1.015249E-08   1.020351E-08   1.015399E-08
      38.000000   1.776263E-08   1.786272E-08   1.776411E-08
      39.000000   3.018834E-08   3.037780E-08   3.018816E-08
      40.000000   4.994828E-08   5.029518E-08   4.994210E-08
      41.000000   8.061401E-08   8.122991E-08   8.059196E-08
      42.000000   1.271413E-07   1.282040E-07   1.270830E-07
      43.000000   1.962703E-07   1.980556E-07   1.961364E-07
      44.000000   2.969995E-07   2.999252E-07   2.967178E-07
      45.000000   4.411380E-07   4.458226E-07   4.405821E-07
      46.000000   6.439388E-07   6.512785E-07   6.428952E-07
      47.000000   9.248137E-07   9.360818E-07   9.229338E-07
      48.000000   1.308130E-06   1.325103E-06   1.304861E-06
      49.000000   1.824087E-06   1.849197E-06   1.818573E-06
      50.000000   2.509666E-06   2.546196E-06   2.500618E-06
      51.000000   3.409653E-06   3.461959E-06   3.395164E-06
      52.000000   4.577721E-06   4.651505E-06   4.555033E-06
      53.000000   6.077571E-06   6.180196E-06   6.042762E-06
      54.000000   7.984118E-06   8.124966E-06   7.931706E-06
      55.000000   1.038471E-05   1.057559E-05   1.030715E-05
      56.000000   1.338036E-05   1.363600E-05   1.326744E-05
      57.000000   1.708703E-05   1.742554E-05   1.692507E-05
      58.000000   2.163686E-05   2.208033E-05   2.140783E-05
      59.000000   2.717943E-05   2.775453E-05   2.685981E-05
      60.000000   3.388297E-05   3.462161E-05   3.344246E-05
      61.000000   4.193556E-05   4.287556E-05   4.133549E-05
      62.000000   5.154624E-05   5.273210E-05   5.073781E-05
      63.000000   6.294610E-05   6.442973E-05   6.186831E-05
      64.000000   7.638927E-05   7.823079E-05   7.496655E-05
      65.000000   9.215385E-05   9.442238E-05   9.029339E-05
      66.000000   1.105427E-04   1.133172E-04   1.081314E-04
      67.000000   1.318842E-04   1.352541E-04   1.287855E-04
      68.000000   1.565328E-04   1.605991E-04   1.525828E-04
      69.000000   1.848694E-04   1.897452E-04   1.798729E-04
      70.000000   2.173020E-04   2.231133E-04   2.110280E-04
      71.000000   2.542656E-04   2.611518E-04   2.464426E-04
      72.000000   2.962221E-04   3.043372E-04   2.865333E-04
      73.000000   3.436608E-04   3.531733E-04   3.317379E-04
      74.000000   3.970974E-04   4.081912E-04   3.825156E-04
      75.000000   4.570741E-04   4.699488E-04   4.393455E-04
      76.000000   5.241587E-04   5.390298E-04   5.027260E-04
      77.000000   5.989437E-04   6.160433E-04   5.731740E-04
      78.000000   6.820458E-04   7.016221E-04   6.512232E-04
      79.000000   7.741043E-04   7.964220E-04   7.374234E-04
      80.000000   8.757798E-04   9.011198E-04   8.323385E-04
      81.000000   9.877530E-04   1.016412E-03   9.365453E-04
      82.000000   1.110723E-03   1.143014E-03   1.050632E-03
      83.000000   1.245404E-03   1.281655E-03   1.175195E-03
      84.000000   1.392527E-03   1.433079E-03   1.310839E-03
      85.000000   1.552832E-03   1.598042E-03   1.458174E-03
      86.000000   1.727071E-03   1.777308E-03   1.617815E-03
      87.000000   1.916003E-03   1.971647E-03   1.790374E-03
      88.000000   2.120391E-03   2.181833E-03   1.976465E-03
      89.000000   2.341000E-03   2.408640E-03   2.176699E-03
      90.000000   2.578593E-03   2.652840E-03   2.391680E-03
      91.000000   2.833931E-03   2.915199E-03   2.622005E-03
      92.000000   3.107765E-03   3.196474E-03   2.868259E-03
      93.000000   3.400838E-03   3.497410E-03   3.131016E-03
      94.000000   3.713878E-03   3.818737E-03   3.410835E-03
      95.000000   4.047597E-03   4.161167E-03   3.708256E-03
      96.000000   4.402687E-03   4.525387E-03   4.023801E-03
      97.000000   4.779814E-03   4.912063E-03   4.357970E-03
      98.000000   5.179620E-03   5.321828E-03   4.711237E-03
      99.000000   5.602716E-03   5.755285E-03   5.084051E-03
     100.000000   6.049681E-03   6.213005E-03   5.476834E-03
     101.000000   6.521055E-03   6.695515E-03   5.889977E-03
     102.000000   7.017341E-03   7.203307E-03   6.323837E-03
     103.000000   7.539001E-03   7.736825E-03   6.778741E-03
     104.000000   8.086449E-03   8.296470E-03   7.254977E-03
     105.000000   8.660055E-03   8.882593E-03   7.752800E-03
     106.000000   9.260138E-03   9.495494E-03   8.272425E-03
     107.000000   9.886966E-03   1.013542E-02   8.814030E-03
     108.000000   1.054075E-02   1.080257E-02   9.377750E-03
     109.000000   1.122166E-02   1.149708E-02   9.963683E-03
     110.000000   1.192979E-02   1.221903E-02   1.057188E-02
     111.000000   1.266519E-02   1.296845E-02   1.120237E-02
     112.000000   1.342784E-02   1.374530E-02   1.185511E-02
     113.000000   1.421768E-02   1.454949E-02   1.253003E-02
     114.000000   1.503458E-02   1.538087E-02   1.322703E-02
     115.000000   1.587835E-02   1.623923E-02   1.394595E-02
     116.000000   1.674875E-02   1.712431E-02   1.468661E-02
     117.000000   1.764547E-02   1.803579E-02   1.544877E-02
     118.000000   1.856816E-02   1.897329E-02   1.623216E-02
     119.000000   1.951639E-02   1.993638E-02   1.703647E-02
     120.000000   2.048971E-02   2.092458E-02   1.786136E-02
     121.000000   2.148760E-02   2.193736E-02   1.870646E-02
     122.000000   2.250949E-02   2.297414E-02   1.957133E-02
     123.000000   2.355476E-02   2.403430E-02   2.045555E-02
     124.000000   2.462277E-02   2.511717E-02   2.135864E-02
     125.000000   2.571280E-02   2.622204E-02   2.228009E-02
     126.000000   2.682412E-02   2.734818E-02   2.321936E-02
     127.000000   2.795596E-02   2.849480E-02   2.417592E-02
     128.000000   2.910751E-02   2.966110E-02   2.514917E-02
     129.000000   3.027793E-02   3.084625E-02   2.613851E-02
     130.000000   3.146636E-02   3.204938E-02   2.714335E-02
     131.000000   3.267192E-02   3.326962E-02   2.816303E-02
     132.000000   3.389370E-02   3.450607E-02   2.919691E-02
     133.000000   3.513079E-02   3.575781E-02   3.024433E-02
     134.000000   3.638225E-02   3.702392E-02   3.130462E-02
     135.000000   3.764715E-02   3.830348E-02   3.237710E-02
     136.000000   3.892452E-02   3.959554E-02   3.346110E-02
     137.000000   4.021343E-02   4.089917E-02   3.455591E-02
     138.000000   4.151292E-02   4.221343E-02   3.566086E-02
     139.000000   4.282205E-02   4.353738E-02   3.677525E-02
     140.000000   4.413988E-02   4.487009E-02   3.789839E-02
     141.000000   4.546546E-02   4.621065E-02   3.902960E-02
     142.000000   4.679788E-02   4.755815E-02   4.016819E-02
     143.000000   4.813624E-02   4.891168E-02   4.131350E-02
     144.000000   4.947963E-02   5.027038E-02   4.246486E-02
     145.000000   5.082718E-02   5.163337E-02   4.362160E-02
     146.000000   5.217803E-02   5.299980E-02   4.478309E-02
     147.000000   5.353135E-02   5.436886E-02   4.594868E-02
     148.000000   5.488632E-02   5.573974E-02   4.711776E-02
     149.000000   5.624215E-02   5.711166E-02   4.828972E-02
     150.000000   5.759808E-02   5.848386E-02   4.946396E-02
     151.000000   5.895336E-02   5.985560E-02   5.063989E-02
     152.000000   6.030728E-02   6.122618E-02   5.181697E-02
     153.000000   6.165915E-02   6.259491E-02   5.299463E-02
     154.000000   6.300831E-02   6.396115E-02   5.417236E-02
     155.000000   6.435413E-02   6.532426E-02   5.534963E-02
     156.000000   6.569600E-02   6.668363E-02   5.652595E-02
     157.000000   6.703336E-02   6.803870E-02   5.770084E-02
     158.000000   6.836565E-02   6.938891E-02   5.887385E-02
     159.000000   6.969235E-02   7.073374E-02   6.004453E-02
     160.000000   7.101297E-02   7.207271E-02   6.121245E-02
     161.000000   7.232704E-02   7.340533E-02   6.237721E-02
     162.000000   7.363414E-02   7.473117E-02   6.353843E-02
     163.000000   7.493384E-02   7.604982E-02   6.469574E-02
     164.000000   7.622577E-02   7.736088E-02   6.584877E-02
     165.000000   7.750957E-02   7.866398E-02   6.699721E-02
     166.000000   7.878489E-02   7.995878E-02   6.814073E-02
     167.000000   8.005144E-02   8.124497E-02   6.927903E-02
     168.000000   8.130893E-02   8.252225E-02   7.041183E-02
     169.000000   8.255709E-02   8.379034E-02   7.153886E-02
     170.000000   8.379568E-02   8.504900E-02   7.265987E-02
     171.000000   8.502449E-02   8.629798E-02   7.377462E-02
     172.000000   8.624331E-02   8.753709E-02   7.488291E-02
     173.000000   8.745196E-02   8.876613E-02   7.598451E-02
     174.000000   8.865029E-02   8.998492E-02   7.707924E-02
     175.000000   8.983816E-02   9.119331E-02   7.816693E-02
     176.000000   9.101543E-02   9.239116E-02   7.924740E-02
     177.000000   9.218199E-02   9.357835E-02   8.032051E-02
     178.000000   9.333777E-02   9.475477E-02   8.138612E-02
     179.000000   9.448267E-02   9.592034E-02   8.244410E-02
     180.000000   9.561664E-02   9.707496E-02   8.349434E-02
     181.000000   9.673962E-02   9.821859E-02   8.453674E-02
     182.000000   9.785158E-02   9.935117E-02   8.557120E-02
     183.000000   9.895249E-02   1.004727E-01   8.659763E-02
     184.000000   1.000423E-01   1.015830E-01   8.761597E-02
     185.000000   1.011211E-01   1.026823E-01   8.862615E-02
     186.000000   1.021888E-01   1.037703E-01   8.962812E-02
     187.000000   1.032455E-01   1.048473E-01   9.062183E-02
     188.000000   1.042911E-01   1.059131E-01   9.160724E-02
     189.000000   1.053258E-01   1.069678E-01   9.258432E-02
     190.000000   1.063495E-01   1.080115E-01   9.355305E-02
     191.000000   1.073623E-01   1.090441E-01   9.451341E-02
     192.000000   1.083643E-01   1.100657E-01   9.546539E-02
     193.000000   1.093555E-01   1.110763E-01   9.640899E-02
     194.000000   1.103359E-01   1.120761E-01   9.734421E-02
     195.000000   1.113057E-01   1.130650E-01   9.827106E-02
     196.000000   1.122649E-01   1.140432E-01   9.918955E-02
     197.000000   1.132137E-01   1.150106E-01   1.000997E-01
     198.000000   1.141520E-01   1.159675E-01   1.010015E-01
     199.000000   1.150799E-01   1.169138E-01   1.018951E-01
     200.000000   1.159977E-01   1.178496E-01   1.027803E-01
